EC-Lab ASCII FILE
Nb header lines : 61                          

Potentio Electrochemical Impedance Spectroscopy

Run on channel : 1 (SN 12040)
User : kknu
CE vs. WE compliance from -10 V to 10 V
Electrode connection : standard
Ewe ctrl range : min = -1.50 V, max = 0.50 V
Safety Limits :
	Do not start on E overload
Acquisition started on : xx/xx/xxxx xx:xx:xx
Technique started on : xx/xx/xxxx xx:xx:xx
Saved on :
	File : xxx.mpr
	Directory : xx\
	Host : xxx.xxx.xxx.xx
Device : VSP (SN xxxx)
Address : xxx.xxx.xx.xxx
EC-Lab for windows v11.16 (software)
Internet server v11.16 (firmware)
Command interpretor v11.16 (firmware)
Electrode material : 
Initial state : 
Electrolyte : 
Comments : 
Electrode surface area : 0.001 cm²
Characteristic mass : 0.001 g
Equivalent Weight : 0.000 g/eq.
Density : 0.000 g/cm3
Cycle Definition : Charge/Discharge alternance
Mode                Single sine         
E (V)               -1.0500             
vs.                 Ref                 
tE (h:m:s)          0:01:0.0000         
record              0                   
dI                  0.000               
unit dI             mA                  
dt (s)              0.000               
fi                  200.000             
unit fi             kHz                 
ff                  10.000              
unit ff             mHz                 
Nd                  8                   
Points              per decade          
spacing             Logarithmic         
Va (mV)             10.0                
pw                  0.50                
Na                  3                   
corr                0                   
E range min (V)     -1.500              
E range max (V)     0.500               
I Range             Auto                
Bandwidth           5                   
nc cycles           0                   
goto Ns'            0                   
nr cycles           1                   
inc. cycle          1                   

freq/Hz	Re(Z)/Ohm	-Im(Z)/Ohm	|Z|/Ohm	Phase(Z)/deg	time/s	<Ewe>/V	<I>/mA	Cs/µF	Cp/µF	cycle number	I Range	|Ewe|/V	|I|/A	Re(Y)/Ohm-1	Im(Y)/Ohm-1	|Y|/Ohm-1	Phase(Y)/deg	
2.0001948E+005	4.2890558E+002	3.7231183E+002	5.6795782E+002	-4.0959641E+001	1.312524303488701E+004	-1.0500560E+000	-3.1820498E-003	2.1371795E-003	9.1838016E-004	1.000000000000000E+000	12	9.2696054E-003	1.6320939E-005	1.3296261E-003	1.1541829E-003	1.7606941E-003	4.0959641E+001
1.4967770E+005	3.8909244E+002	7.7930804E+002	8.7104187E+002	-6.3467991E+001	1.312592603691944E+004	-1.0504403E+000	-3.6006798E-003	1.3644381E-003	1.0921798E-003	1.000000000000000E+000	12	1.0165938E-002	1.1671010E-005	5.1283150E-004	1.0271434E-003	1.1480504E-003	6.3467991E+001
1.1201170E+005	7.9036896E+002	1.2761929E+003	1.5011167E+003	-5.8229328E+001	1.312660905815184E+004	-1.0503253E+000	-3.5972148E-003	1.1133724E-003	8.0471882E-004	1.000000000000000E+000	12	1.0198437E-002	6.7939000E-006	3.5075267E-004	5.6635326E-004	6.6617073E-004	5.8229328E+001
8.3828102E+004	1.4504832E+003	1.3209287E+003	1.9618242E+003	-4.2323559E+001	1.312716503703161E+004	-1.0502925E+000	-3.6218623E-003	1.4373122E-003	6.5161294E-004	1.000000000000000E+000	12	1.0902404E-002	5.5572787E-006	3.7687083E-004	3.4320942E-004	5.0972967E-004	4.2323559E+001
6.2734359E+004	1.8637498E+003	1.0407461E+003	2.1346465E+003	-2.9179655E+001	1.312772205569805E+004	-1.0502665E+000	-3.5961159E-003	2.4376418E-003	5.7943875E-004	1.000000000000000E+000	12	1.0427532E-002	4.8848988E-006	4.0901164E-004	2.2839832E-004	4.6846166E-004	2.9179655E+001
4.6953109E+004	2.0527754E+003	7.6346350E+002	2.1901514E+003	-2.0401060E+001	1.312827903385786E+004	-1.0502833E+000	-3.5800941E-003	4.4398415E-003	5.3950539E-004	1.000000000000000E+000	12	1.0182092E-002	4.6490359E-006	4.2795012E-004	1.5916224E-004	4.5658945E-004	2.0401060E+001
3.5136707E+004	2.1357935E+003	5.6303845E+002	2.2087612E+003	-1.4768335E+001	1.312883604681765E+004	-1.0502768E+000	-3.5808207E-003	8.0449069E-003	5.2275666E-004	1.000000000000000E+000	12	1.0283302E-002	4.6556875E-006	4.3778587E-004	1.1540922E-004	4.5274248E-004	1.4768335E+001
2.6298820E+004	2.1661289E+003	4.2353659E+002	2.2071470E+003	-1.1063292E+001	1.312939304321742E+004	-1.0502681E+000	-3.5812119E-003	1.4288708E-002	5.2615331E-004	1.000000000000000E+000	12	1.0090502E-002	4.5717397E-006	4.4465359E-004	8.6941756E-005	4.5307359E-004	1.1063292E+001
1.9677732E+004	2.1843855E+003	3.0937982E+002	2.2061858E+003	-8.0613232E+000	1.312982403755793E+004	-1.0503170E+000	-3.5747287E-003	2.6142860E-002	5.1410630E-004	1.000000000000000E+000	12	1.0649964E-002	4.8273196E-006	4.4879201E-004	6.3563501E-005	4.5327097E-004	8.0613232E+000
1.4726557E+004	2.1977610E+003	2.3715160E+002	2.2105190E+003	-6.1587286E+000	1.313038103795770E+004	-1.0502862E+000	-3.5885894E-003	4.5571450E-002	5.2451319E-004	1.000000000000000E+000	12	1.0232713E-002	4.6290997E-006	4.4977150E-004	4.8533042E-005	4.5238243E-004	6.1587286E+000
1.1025388E+004	2.2013044E+003	1.9236378E+002	2.2096934E+003	-4.9941778E+000	1.313081205629813E+004	-1.0502419E+000	-3.5868196E-003	7.5041749E-002	5.6870305E-004	1.000000000000000E+000	12	1.0464448E-002	4.7357016E-006	4.5083338E-004	3.9396647E-005	4.5255147E-004	4.9941778E+000
8.3251924E+003	2.1876287E+003	1.4801385E+002	2.1926301E+003	-3.8707044E+000	1.313130952949508E+004	-1.0504823E+000	-3.5907505E-003	1.2915865E-001	5.8856909E-004	1.000000000000000E+000	12	1.0540411E-002	4.8071997E-006	4.5503292E-004	3.0787298E-005	4.5607326E-004	3.8707044E+000
6.1954932E+003	2.2131277E+003	1.0318183E+002	2.2155317E+003	-2.6693468E+000	1.313194680968544E+004	-1.0502187E+000	-3.5813611E-003	2.4896657E-001	5.3999724E-004	1.000000000000000E+000	12	1.0706946E-002	4.8326756E-006	4.5086915E-004	2.1020705E-005	4.5135891E-004	2.6693468E+000
4.6214780E+003	2.2032334E+003	9.1922943E+001	2.2051501E+003	-2.3890996E+000	1.313270065532124E+004	-1.0502307E+000	-3.5967492E-003	3.7464103E-001	6.5100874E-004	1.000000000000000E+000	12	1.0708295E-002	4.8560387E-006	4.5308968E-004	1.8903735E-005	4.5348387E-004	2.3890996E+000
3.4561052E+003	2.2121907E+003	7.5830688E+001	2.2134900E+003	-1.9632475E+000	1.313345463239704E+004	-1.0502374E+000	-3.5940292E-003	6.0727888E-001	7.1272673E-004	1.000000000000000E+000	12	1.0756413E-002	4.8594816E-006	4.5151004E-004	1.5477110E-005	4.5177524E-004	1.9632475E+000
2.5858269E+003	2.2188699E+003	7.4198906E+001	2.2201101E+003	-1.9152546E+000	1.313420863032620E+004	-1.0502819E+000	-3.5997671E-003	8.2951295E-001	9.2655065E-004	1.000000000000000E+000	12	1.0749149E-002	4.8417187E-006	4.5017648E-004	1.5053881E-005	4.5042811E-004	1.9152546E+000
1.9356189E+003	2.2132883E+003	7.3549820E+001	2.2145100E+003	-1.9032967E+000	1.313496265164201E+004	-1.0502504E+000	-3.6149505E-003	1.1179404E+000	1.2331803E-003	1.000000000000000E+000	12	1.0740370E-002	4.8499987E-006	4.5131805E-004	1.4997759E-005	4.5156718E-004	1.9032967E+000
1.4486094E+003	2.2211377E+003	7.9634293E+001	2.2225647E+003	-2.0533421E+000	1.313571690989114E+004	-1.0502571E+000	-3.5956502E-003	1.3796493E+000	1.7711696E-003	1.000000000000000E+000	12	1.0766301E-002	4.8440888E-006	4.4964175E-004	1.6120975E-005	4.4993067E-004	2.0533421E+000
1.0839595E+003	2.2049114E+003	9.1708397E+001	2.2068179E+003	-2.3817179E+000	1.313647091107361E+004	-1.0502785E+000	-3.6151181E-003	1.6010245E+000	2.7649240E-003	1.000000000000000E+000	12	1.0700989E-002	4.8490583E-006	4.5274972E-004	1.8831119E-005	4.5314117E-004	2.3817179E+000
8.1129767E+002	2.2342273E+003	1.0941949E+002	2.2369050E+003	-2.8037748E+000	1.313722339372267E+004	-1.0502712E+000	-3.5764987E-003	1.7928551E+000	4.2898240E-003	1.000000000000000E+000	12	1.0760821E-002	4.8105849E-006	4.4651108E-004	2.1867523E-005	4.4704624E-004	2.8037748E+000
6.0752716E+002	2.2262600E+003	1.4205338E+002	2.2307876E+003	-3.6509838E+000	1.313797386370500E+004	-1.0502378E+000	-3.5783616E-003	1.8441781E+000	7.4780700E-003	1.000000000000000E+000	12	1.0756503E-002	4.8218408E-006	4.4736240E-004	2.8545333E-005	4.4827219E-004	3.6509838E+000
4.5456351E+002	2.2403040E+003	1.7357190E+002	2.2470178E+003	-4.4302516E+000	1.313872788883417E+004	-1.0502797E+000	-3.5843602E-003	2.0171869E+000	1.2036271E-002	1.000000000000000E+000	12	1.0759777E-002	4.7884701E-006	4.4370457E-004	3.4376873E-005	4.4503430E-004	4.4302516E+000
3.4010876E+002	2.2586438E+003	1.9812987E+002	2.2673171E+003	-5.0131950E+000	1.313948164748332E+004	-1.0502100E+000	-3.5735364E-003	2.3618503E+000	1.8035481E-002	1.000000000000000E+000	12	1.0776033E-002	4.7527683E-006	4.3936272E-004	3.8541217E-005	4.4104990E-004	5.0131950E+000
2.5443001E+002	2.2751101E+003	2.7101831E+002	2.2911956E+003	-6.7932420E+000	1.314023715079913E+004	-1.0503424E+000	-3.6174469E-003	2.3080924E+000	3.2294318E-002	1.000000000000000E+000	12	1.0759446E-002	4.6959963E-006	4.3338921E-004	5.1626692E-005	4.3645335E-004	6.7932420E+000
1.9054874E+002	2.2927209E+003	3.3335638E+002	2.3168289E+003	-8.2727041E+000	1.314098813790147E+004	-1.0501928E+000	-3.5804110E-003	2.5055625E+000	5.1872231E-002	1.000000000000000E+000	12	1.0751032E-002	4.6404084E-006	4.2713314E-004	6.2104184E-005	4.3162444E-004	8.2727041E+000
1.4249214E+002	2.3092393E+003	4.1307745E+002	2.3458940E+003	-1.0141822E+001	1.314175323772448E+004	-1.0502143E+000	-3.5832240E-003	2.7039442E+000	8.3838582E-002	1.000000000000000E+000	12	1.0776564E-002	4.5937982E-006	4.1961609E-004	7.5061063E-005	4.2627670E-004	1.0141822E+001
1.0667264E+002	2.3509949E+003	5.3476080E+002	2.4110466E+003	-1.2814549E+001	1.314274055134470E+004	-1.0502476E+000	-3.7005187E-003	2.7900214E+000	1.3725097E-001	1.000000000000000E+000	13	1.0778770E-002	4.4705771E-006	4.0442729E-004	9.1991635E-005	4.1475764E-004	1.2814549E+001
7.9821213E+001	2.3831812E+003	6.8744324E+002	2.4803489E+003	-1.6090530E+001	1.314349613524729E+004	-1.0502632E+000	-3.7146532E-003	2.9004471E+000	2.2279894E-001	1.000000000000000E+000	13	1.0769751E-002	4.3420305E-006	3.8737492E-004	1.1174067E-004	4.0316908E-004	1.6090530E+001
5.9789532E+001	2.4483010E+003	6.9426819E+002	2.5448352E+003	-1.5831820E+001	1.314425241213653E+004	-1.0502381E+000	-3.7099672E-003	3.8341379E+000	2.8536645E-001	1.000000000000000E+000	13	1.0719695E-002	4.2123338E-006	3.7804674E-004	1.0720325E-004	3.9295276E-004	1.5831820E+001
4.4728039E+001	2.5349478E+003	1.1112426E+003	2.7678186E+003	-2.3671158E+001	1.314500990374587E+004	-1.0502433E+000	-3.7130639E-003	3.2020743E+000	5.1614761E-001	1.000000000000000E+000	13	1.0792664E-002	3.8993394E-006	3.3089772E-004	1.4505531E-004	3.6129536E-004	2.3671158E+001
3.3427559E+001	2.6627390E+003	1.4442599E+003	3.0292021E+003	-2.8475243E+001	1.314579613332986E+004	-1.0502683E+000	-3.7173158E-003	3.2966294E+000	7.4938381E-001	1.000000000000000E+000	13	1.0781306E-002	3.5591238E-006	2.9018306E-004	1.5739424E-004	3.3011992E-004	2.8475243E+001
2.5040062E+001	2.8340005E+003	1.8140272E+003	3.3648557E+003	-3.2623070E+001	1.314654840427224E+004	-1.0502712E+000	-3.7061532E-003	3.5038133E+000	1.0183467E+000	1.000000000000000E+000	13	1.0779749E-002	3.2036287E-006	2.5030356E-004	1.6021785E-004	2.9718957E-004	3.2623070E+001
1.8735012E+001	3.0891526E+003	2.2984983E+003	3.8504492E+003	-3.6651264E+001	1.314734820289689E+004	-1.0502827E+000	-3.7135426E-003	3.6959150E+000	1.3170054E+000	1.000000000000000E+000	13	1.0735855E-002	2.7882086E-006	2.0836106E-004	1.5503202E-004	2.5970995E-004	3.6651264E+001
1.4017643E+001	3.4860845E+003	2.8342695E+003	4.4928687E+003	-3.9111931E+001	1.314815074432173E+004	-1.0502393E+000	-3.7161969E-003	4.0059357E+000	1.5941855E+000	1.000000000000000E+000	13	1.0771818E-002	2.3975367E-006	1.7269925E-004	1.4040861E-004	2.2257495E-004	3.9111931E+001
1.0500673E+001	4.0318779E+003	3.4518562E+003	5.3076689E+003	-4.0568188E+001	1.314887117022258E+004	-1.0502073E+000	-3.7081563E-003	4.3908668E+000	1.8571545E+000	1.000000000000000E+000	13	1.0806625E-002	2.0360396E-006	1.4311980E-004	1.2253074E-004	1.8840663E-004	4.0568188E+001
7.8596544E+000	4.7749355E+003	4.0214856E+003	6.2427842E+003	-4.0104328E+001	1.314981420405401E+004	-1.0502412E+000	-3.7144164E-003	5.0353556E+000	2.0895200E+000	1.000000000000000E+000	13	1.0764838E-002	1.7243650E-006	1.2252109E-004	1.0318815E-004	1.6018494E-004	4.0104328E+001
5.8829055E+000	5.7863901E+003	4.5814502E+003	7.3805146E+003	-3.8370884E+001	1.315046368112494E+004	-1.0502533E+000	-3.7059314E-003	5.9050732E+000	2.2754009E+000	1.000000000000000E+000	13	1.0756104E-002	1.4573651E-006	1.0622688E-004	8.4106527E-005	1.3549191E-004	3.8370884E+001
4.3989296E+000	6.8237378E+003	4.9496250E+003	8.4298389E+003	-3.5955402E+001	1.315158807197830E+004	-1.0502201E+000	-3.7362687E-003	7.3097215E+000	2.5200367E+000	1.000000000000000E+000	14	1.0736196E-002	1.2735944E-006	9.6024880E-005	6.9652029E-005	1.1862623E-004	3.5955402E+001
3.2936332E+000	7.9708975E+003	5.1299170E+003	9.4789902E+003	-3.2764557E+001	1.315270141283114E+004	-1.0502769E+000	-3.7292021E-003	9.4196463E+000	2.7588692E+000	1.000000000000000E+000	14	1.0781649E-002	1.1374259E-006	8.8712142E-005	5.7093435E-005	1.0549647E-004	3.2764557E+001
2.4660668E+000	9.0227178E+003	5.2355132E+003	1.0431685E+004	-3.0124836E+001	1.315416929647420E+004	-1.0502352E+000	-3.7284982E-003	1.2326962E+001	3.1050289E+000	1.000000000000000E+000	14	1.0744412E-002	1.0299786E-006	8.2914121E-005	4.8111666E-005	9.5861797E-005	3.0124836E+001
1.8425707E+000	1.0103474E+004	5.2197568E+003	1.1372161E+004	-2.7322229E+001	1.315611570568671E+004	-1.0502393E+000	-3.7250405E-003	1.6548006E+001	3.4862638E+000	1.000000000000000E+000	14	1.0746323E-002	9.4496750E-007	7.8124045E-005	4.0361221E-005	8.7934037E-005	2.7322229E+001
1.3812761E+000	1.1009766E+004	5.2236411E+003	1.2186113E+004	-2.5382248E+001	1.315869597306260E+004	-1.0502473E+000	-3.7209806E-003	2.2058008E+001	4.0530553E+000	1.000000000000000E+000	14	1.0749591E-002	8.8211806E-007	7.4139156E-005	3.5175715E-005	8.2060622E-005	2.5382248E+001
1.0333992E+000	1.1881007E+004	5.2894888E+003	1.3005269E+004	-2.3998890E+001	1.316212787621227E+004	-1.0502533E+000	-3.7190400E-003	2.9116442E+001	4.8164501E+000	1.000000000000000E+000	14	1.0762257E-002	8.2753053E-007	7.0244867E-005	3.1273397E-005	7.6891913E-005	2.3998890E+001
7.7320820E-001	1.2655954E+004	5.4625200E+003	1.3784495E+004	-2.3345829E+001	1.316670071064279E+004	-1.0502406E+000	-3.7159591E-003	3.7681713E+001	5.9174552E+000	1.000000000000000E+000	14	1.0748830E-002	7.7977683E-007	6.6605971E-005	2.8748243E-005	7.2545277E-005	2.3345829E+001
5.7853222E-001	1.3409011E+004	5.7606875E+003	1.4594077E+004	-2.3248995E+001	1.317279613559897E+004	-1.0502527E+000	-3.7098762E-003	4.7754940E+001	7.4406972E+000	1.000000000000000E+000	14	1.0737889E-002	7.3577030E-007	6.2956919E-005	2.7047117E-005	6.8520945E-005	2.3248995E+001
4.3306541E-001	1.4263258E+004	6.1965791E+003	1.5551146E+004	-2.3482222E+001	1.318092517449171E+004	-1.0502465E+000	-3.7086499E-003	5.9308186E+001	9.4165945E+000	1.000000000000000E+000	14	1.0740551E-002	6.9065982E-007	5.8978534E-005	2.5622840E-005	6.4303946E-005	2.3482222E+001
3.2390133E-001	1.5132134E+004	6.8913320E+003	1.6627445E+004	-2.4485016E+001	1.319177911623393E+004	-1.0502520E+000	-3.7032049E-003	7.1302414E+001	1.2247841E+001	1.000000000000000E+000	14	1.0752932E-002	6.4669780E-007	5.4732984E-005	2.4925974E-005	6.0141530E-005	2.4485016E+001
2.4232319E-001	1.6160701E+004	7.7393120E+003	1.7918293E+004	-2.5589621E+001	1.320627401822910E+004	-1.0502548E+000	-3.6996854E-003	8.4863861E+001	1.5831944E+001	1.000000000000000E+000	14	1.0747342E-002	5.9979720E-007	5.0334638E-005	2.4105108E-005	5.5808887E-005	2.5589621E+001
1.8153407E-001	1.7307340E+004	8.8199307E+003	1.9425117E+004	-2.7003681E+001	1.322560986685415E+004	-1.0502534E+000	-3.6979795E-003	9.9402397E+001	2.0492733E+001	1.000000000000000E+000	14	1.0742451E-002	5.5301859E-007	4.5867280E-005	2.3374259E-005	5.1479739E-005	2.7003681E+001
1.3584591E-001	1.8730279E+004	1.0196389E+004	2.1325799E+004	-2.8562986E+001	1.325143590328083E+004	-1.0502543E+000	-3.6985418E-003	1.1490189E+002	2.6266930E+001	1.000000000000000E+000	14	1.0746174E-002	5.0390491E-007	4.1184485E-005	2.2420007E-005	4.6891560E-005	2.8562986E+001
1.0172522E-001	2.0386939E+004	1.1816216E+004	2.3563748E+004	-3.0096466E+001	1.328591170777171E+004	-1.0502584E+000	-3.6920174E-003	1.3240765E+002	3.3295162E+001	1.000000000000000E+000	14	1.0748513E-002	4.5614615E-007	3.6716669E-005	2.1280883E-005	4.2438071E-005	3.0096466E+001
7.6103695E-002	2.2559674E+004	1.3729645E+004	2.6409127E+004	-3.1324375E+001	1.333198146939982E+004	-1.0502534E+000	-3.6776478E-003	1.5231937E+002	4.1168552E+001	1.000000000000000E+000	14	1.0746581E-002	4.0692677E-007	3.2346310E-005	1.9685716E-005	3.7865699E-005	3.1324375E+001
5.6966495E-002	2.4964209E+004	1.6181419E+004	2.9749791E+004	-3.2950691E+001	1.339351512197586E+004	-1.0502598E+000	-3.6651967E-003	1.7265694E+002	5.1079823E+001	1.000000000000000E+000	14	1.0746115E-002	3.6121648E-007	2.8206548E-005	1.8283054E-005	3.3613680E-005	3.2950691E+001
4.2644646E-002	2.9454738E+004	1.9867244E+004	3.5528707E+004	-3.3999695E+001	1.347570155049284E+004	-1.0502478E+000	-3.6478355E-003	1.8785294E+002	5.8740067E+001	1.000000000000000E+000	14	1.0746495E-002	3.0247358E-007	2.3334387E-005	1.5739062E-005	2.8146254E-005	3.3999695E+001
3.1913798E-002	3.3965430E+004	2.2469424E+004	4.0724996E+004	-3.3486153E+001	1.358551007730851E+004	-1.0502493E+000	-3.6144059E-003	2.2194722E+002	6.7563393E+001	1.000000000000000E+000	14	1.0746959E-002	2.6389097E-007	2.0479294E-005	1.3547832E-005	2.4554944E-005	3.3486153E+001
2.3876827E-002	4.1704094E+004	2.5419268E+004	4.8840258E+004	-3.1362930E+001	1.373226752987906E+004	-1.0502433E+000	-3.5929247E-003	2.6222885E+002	7.1031441E+001	1.000000000000000E+000	14	1.0747910E-002	2.2006252E-007	1.7483277E-005	1.0656317E-005	2.0474912E-005	3.1362930E+001
1.7841151E-002	4.7833246E+004	2.5210113E+004	5.4070039E+004	-2.7791100E+001	1.392866033016721E+004	-1.0502535E+000	-3.5148074E-003	3.5385266E+002	7.6923439E+001	1.000000000000000E+000	14	1.0748514E-002	1.9878873E-007	1.6361249E-005	8.6230611E-006	1.8494531E-005	2.7791100E+001
1.3377565E-002	7.1192375E+004	2.9289348E+004	7.6981945E+004	-2.2362820E+001	1.419056937146059E+004	-1.0502476E+000	-3.4760721E-003	4.0619388E+002	5.8799686E+001	1.000000000000000E+000	14	1.0747998E-002	1.3961713E-007	1.2013117E-005	4.9423320E-006	1.2990059E-005	2.2362820E+001
1.0005763E-002	6.1969063E+004	2.3548105E+004	6.6292367E+004	-2.0806679E+001	1.454072544171877E+004	-1.0502472E+000	-3.3737435E-003	6.7548230E+002	8.5231255E+001	1.000000000000000E+000	14	1.0749274E-002	1.6214949E-007	1.4100933E-005	5.3583231E-006	1.5084693E-005	2.0806679E+001
2.0001948E+005	4.1834854E+002	3.8373511E+002	5.6768665E+002	-4.2528969E+001	1.460242710907612E+004	-1.0501432E+000	-2.9966652E-003	2.0735585E-003	9.4746245E-004	2.000000000000000E+000	12	9.5778583E-003	1.6871734E-005	1.2981381E-003	1.1907325E-003	1.7615352E-003	4.2528969E+001
1.4967770E+005	3.9276862E+002	7.9551337E+002	8.8719147E+002	-6.3723076E+001	1.460311011529528E+004	-1.0504442E+000	-3.1706861E-003	1.3366432E-003	1.0746716E-003	2.000000000000000E+000	12	1.0162750E-002	1.1454968E-005	4.9900170E-004	1.0106779E-003	1.1271524E-003	6.3723076E+001
1.1201170E+005	8.1114404E+002	1.2948766E+003	1.5279595E+003	-5.7935913E+001	1.460379311724764E+004	-1.0502840E+000	-3.1694937E-003	1.0973075E-003	7.8806398E-004	2.000000000000000E+000	12	1.0151099E-002	6.6435659E-006	3.4743559E-004	5.5463176E-004	6.5446761E-004	5.7935913E+001
8.3828102E+004	1.4860361E+003	1.3270924E+003	1.9923547E+003	-4.1766186E+001	1.460435010735417E+004	-1.0503662E+000	-3.1631037E-003	1.4306366E-003	6.3474360E-004	2.000000000000000E+000	12	1.0887172E-002	5.4644747E-006	3.7436569E-004	3.3432420E-004	5.0191866E-004	4.1766186E+001
6.2734359E+004	1.8841494E+003	1.0444985E+003	2.1542971E+003	-2.9002268E+001	1.460490612332721E+004	-1.0502739E+000	-3.1476223E-003	2.4288844E-003	5.7096739E-004	2.000000000000000E+000	12	1.0447661E-002	4.8496845E-006	4.0597952E-004	2.2505914E-004	4.6418852E-004	2.9002268E+001
4.6953109E+004	2.0668611E+003	7.5937323E+002	2.2019451E+003	-2.0173538E+001	1.460546212402027E+004	-1.0503359E+000	-3.1775418E-003	4.4637565E-003	5.3088210E-004	2.000000000000000E+000	12	1.0286880E-002	4.6717241E-006	4.2628331E-004	1.5661822E-004	4.5414394E-004	2.0173538E+001
3.5136707E+004	2.1406111E+003	5.6424066E+002	2.2137261E+003	-1.4766640E+001	1.460601912031340E+004	-1.0503345E+000	-3.1405990E-003	8.0277659E-003	5.2152568E-004	2.000000000000000E+000	12	1.0174186E-002	4.5959550E-006	4.3680740E-004	1.1513745E-004	4.5172707E-004	1.4766640E+001
2.6298820E+004	2.1777388E+003	4.0470432E+002	2.2150242E+003	-1.0527577E+001	1.460644912182714E+004	-1.0502663E+000	-3.1674819E-003	1.4953609E-002	4.9918873E-004	2.000000000000000E+000	12	1.1059094E-002	4.9927644E-006	4.4386293E-004	8.2486127E-005	4.5146234E-004	1.0527577E+001
1.9677732E+004	2.1758818E+003	2.9529831E+002	2.1958286E+003	-7.7286382E+000	1.460700612873363E+004	-1.0502986E+000	-3.1550743E-003	2.7389502E-002	4.9534661E-004	2.000000000000000E+000	12	1.0172667E-002	4.6327236E-006	4.5127206E-004	6.1244071E-005	4.5540894E-004	7.7286382E+000
1.4726557E+004	2.1931292E+003	2.3757292E+002	2.2059592E+003	-6.1825151E+000	1.460743711515411E+004	-1.0502446E+000	-3.1239439E-003	4.5490634E-002	5.2761956E-004	2.000000000000000E+000	12	1.0574595E-002	4.7936492E-006	4.5068099E-004	4.8820471E-005	4.5331754E-004	6.1825151E+000
1.1025388E+004	2.1915713E+003	1.8541144E+002	2.1994004E+003	-4.8358250E+000	1.460786812298786E+004	-1.0502317E+000	-3.1217455E-003	7.7855580E-002	5.5329176E-004	2.000000000000000E+000	12	1.0783400E-002	4.9028818E-006	4.5305092E-004	3.8329035E-005	4.5466938E-004	4.8358250E+000
8.3251924E+003	2.2006755E+003	1.3230052E+002	2.2046487E+003	-3.4403753E+000	1.460836559650482E+004	-1.0503073E+000	-3.1491502E-003	1.4449883E-001	5.2036566E-004	2.000000000000000E+000	12	1.0921496E-002	4.9538485E-006	4.5276954E-004	2.7219667E-005	4.5358701E-004	3.4403753E+000
6.1954932E+003	2.2025833E+003	1.1430060E+002	2.2055471E+003	-2.9706357E+000	1.460918587345051E+004	-1.0502988E+000	-3.1625077E-003	2.2474796E-001	6.0361507E-004	2.000000000000000E+000	12	1.0127037E-002	4.5916213E-006	4.5279297E-004	2.3497183E-005	4.5340223E-004	2.9706357E+000
4.6214780E+003	2.2065227E+003	9.8936699E+001	2.2087397E+003	-2.5673249E+000	1.460993973433966E+004	-1.0502234E+000	-3.1730894E-003	3.4808218E-001	6.9840532E-004	2.000000000000000E+000	12	1.0202082E-002	4.6189607E-006	4.5229244E-004	2.0280017E-005	4.5274687E-004	2.5673249E+000
3.4561052E+003	2.1996536E+003	8.9147110E+001	2.2014592E+003	-2.3208015E+000	1.461069369656214E+004	-1.0502235E+000	-3.1541800E-003	5.1656610E-001	8.4706972E-004	2.000000000000000E+000	12	1.0180078E-002	4.6242412E-006	4.5387159E-004	1.8394414E-005	4.5424417E-004	2.3208015E+000
2.5858269E+003	2.2080139E+003	6.4448265E+001	2.2089543E+003	-1.6718941E+000	1.461144770878460E+004	-1.0502865E+000	-3.1889249E-003	9.5501333E-001	8.1293989E-004	2.000000000000000E+000	12	1.0237677E-002	4.6346258E-006	4.5251017E-004	1.3208021E-005	4.5270289E-004	1.6718941E+000
1.9356189E+003	2.2155479E+003	6.5745094E+001	2.2165232E+003	-1.6997200E+000	1.461220169212710E+004	-1.0502656E+000	-3.1647431E-003	1.2506533E+000	1.1003201E-003	2.000000000000000E+000	12	1.0244076E-002	4.6216869E-006	4.5095850E-004	1.3381930E-005	4.5115702E-004	1.6997200E+000
1.4486094E+003	2.2255652E+003	7.7476143E+001	2.2269133E+003	-1.9937695E+000	1.461295598477623E+004	-1.0502102E+000	-3.1517770E-003	1.4180804E+000	1.7164462E-003	2.000000000000000E+000	12	1.0278629E-002	4.6156397E-006	4.4878019E-004	1.5622889E-005	4.4905205E-004	1.9937695E+000
1.0839595E+003	2.2156006E+003	8.6782684E+001	2.2172996E+003	-2.2430673E+000	1.461370999318539E+004	-1.0502354E+000	-3.1624329E-003	1.6918973E+000	2.5917399E-003	2.000000000000000E+000	12	1.0212832E-002	4.6059777E-006	4.5065346E-004	1.7651611E-005	4.5099904E-004	2.2430673E+000
8.1129767E+002	2.2229026E+003	1.1422885E+002	2.2258357E+003	-2.9416850E+000	1.461446246194106E+004	-1.0501858E+000	-3.1318618E-003	1.7173709E+000	4.5230305E-003	2.000000000000000E+000	12	1.0239352E-002	4.6002278E-006	4.4867746E-004	2.3056300E-005	4.4926946E-004	2.9416850E+000
6.0752716E+002	2.2345769E+003	1.3274074E+002	2.2385161E+003	-3.3995504E+000	1.461521292403009E+004	-1.0503048E+000	-3.1800198E-003	1.9735594E+000	6.9396603E-003	2.000000000000000E+000	12	1.0255241E-002	4.5812676E-006	4.4593841E-004	2.6490112E-005	4.4672450E-004	3.3995504E+000
4.5456351E+002	2.2392979E+003	1.7331729E+002	2.2459951E+003	-4.4257579E+000	1.461596695387925E+004	-1.0502363E+000	-3.1772624E-003	2.0201504E+000	1.2029563E-002	2.000000000000000E+000	12	1.0216810E-002	4.5489010E-006	4.4390932E-004	3.4357712E-005	4.4523695E-004	4.4257579E+000
3.4010876E+002	2.2486316E+003	2.1184880E+002	2.2585889E+003	-5.3820825E+000	1.461672073034173E+004	-1.0502136E+000	-3.1532673E-003	2.2089012E+000	1.9433632E-002	2.000000000000000E+000	12	1.0261016E-002	4.5431093E-006	4.4080237E-004	4.1529016E-005	4.4275433E-004	5.3820825E+000
2.5443001E+002	2.2574490E+003	2.6728607E+002	2.2732175E+003	-6.7524872E+000	1.461747621829755E+004	-1.0502366E+000	-3.1638488E-003	2.3403213E+000	3.2355353E-002	2.000000000000000E+000	12	1.0246646E-002	4.5075517E-006	4.3685362E-004	5.1724262E-005	4.3990510E-004	6.7524872E+000
1.9054874E+002	2.2749441E+003	3.3834491E+002	2.2999670E+003	-8.4594021E+000	1.461822722366656E+004	-1.0502084E+000	-3.1604955E-003	2.4686210E+000	5.3423271E-002	2.000000000000000E+000	12	1.0236295E-002	4.4506269E-006	4.3005848E-004	6.3961175E-005	4.3478885E-004	8.4594021E+000
1.4249214E+002	2.3045706E+003	4.2511087E+002	2.3434514E+003	-1.0451535E+001	1.461899229844956E+004	-1.0502411E+000	-3.1635324E-003	2.6274049E+000	8.6460859E-002	2.000000000000000E+000	12	1.0251375E-002	4.3744772E-006	4.1964118E-004	7.7408797E-005	4.2672103E-004	1.0451535E+001
1.0667264E+002	2.3462925E+003	5.4038007E+002	2.4077166E+003	-1.2969758E+001	1.461997965606986E+004	-1.0503013E+000	-3.2958623E-003	2.7610087E+000	1.3907713E-001	2.000000000000000E+000	13	1.0294960E-002	4.2758188E-006	4.0473562E-004	9.3215596E-005	4.1533128E-004	1.2969758E+001
7.9821213E+001	2.3817573E+003	7.1203076E+002	2.4859114E+003	-1.6644133E+001	1.462073521962570E+004	-1.0502989E+000	-3.3031660E-003	2.8002903E+000	2.2973612E-001	2.000000000000000E+000	13	1.0281722E-002	4.1359972E-006	3.8541286E-004	1.1521989E-004	4.0226695E-004	1.6644133E+001
5.9789532E+001	2.3567822E+003	7.3547620E+002	2.4688757E+003	-1.7331470E+001	1.462149149907497E+004	-1.0502161E+000	-3.2830897E-003	3.6193147E+000	3.2119232E-001	2.000000000000000E+000	13	1.0273308E-002	4.1611283E-006	3.8665265E-004	1.2066191E-004	4.0504267E-004	1.7331470E+001
4.4728039E+001	2.5029810E+003	1.1344125E+003	2.7480549E+003	-2.4381201E+001	1.462224899783096E+004	-1.0502269E+000	-3.2917650E-003	3.1366735E+000	5.3451568E-001	2.000000000000000E+000	13	1.0277752E-002	3.7400096E-006	3.3144141E-004	1.5021738E-004	3.6389375E-004	2.4381201E+001
3.3427559E+001	2.6221138E+003	1.4640819E+003	3.0031677E+003	-2.9177219E+001	1.462303517536161E+004	-1.0502552E+000	-3.2827675E-003	3.2519968E+000	7.7289712E-001	2.000000000000000E+000	13	1.0258658E-002	3.4159457E-006	2.9073167E-004	1.6233277E-004	3.3298173E-004	2.9177219E+001
2.5040062E+001	2.7629050E+003	1.8647968E+003	3.3333333E+003	-3.4017014E+001	1.462378745710402E+004	-1.0503267E+000	-3.2689441E-003	3.4084210E+000	1.0667405E+000	2.000000000000000E+000	13	1.0237627E-002	3.0712881E-006	2.4866147E-004	1.6783172E-004	3.0000001E-004	3.4017014E+001
1.8735012E+001	2.9851375E+003	2.3986462E+003	3.8294321E+003	-3.8782906E+001	1.462458730228868E+004	-1.0502329E+000	-3.2869934E-003	3.5416038E+000	1.3895161E+000	2.000000000000000E+000	13	1.0260098E-002	2.6792738E-006	2.0356147E-004	1.6356766E-004	2.6113531E-004	3.8782906E+001
1.4017643E+001	3.3546917E+003	3.0293848E+003	4.5200806E+003	-4.2082962E+001	1.462538979502015E+004	-1.0502783E+000	-3.2962582E-003	3.7479236E+000	1.6834772E+000	2.000000000000000E+000	13	1.0264926E-002	2.2709607E-006	1.6419512E-004	1.4827301E-004	2.2123499E-004	4.2082962E+001
1.0500673E+001	3.8449868E+003	3.7163142E+003	5.3474214E+003	-4.4025078E+001	1.462611025092099E+004	-1.0503861E+000	-3.3097619E-003	4.0784068E+000	1.9698203E+000	2.000000000000000E+000	13	1.0220390E-002	1.9112745E-006	1.3446400E-004	1.2996416E-004	1.8700602E-004	4.4025078E+001
7.8596544E+000	4.6003882E+003	4.5279146E+003	6.4548882E+003	-4.4545113E+001	1.462705328109913E+004	-1.0501963E+000	-3.2870658E-003	4.4721713E+000	2.2005813E+000	2.000000000000000E+000	13	1.0225826E-002	1.5841988E-006	1.1041219E-004	1.0867278E-004	1.5492135E-004	4.4545113E+001
5.8829055E+000	5.5333882E+003	5.3256553E+003	7.6799082E+003	-4.3904068E+001	1.462770275595668E+004	-1.0502473E+000	-3.2751600E-003	5.0799007E+000	2.4428074E+000	2.000000000000000E+000	13	1.0242609E-002	1.3336891E-006	9.3816467E-005	9.0294430E-005	1.3020988E-004	4.3904068E+001
4.3989296E+000	6.8238105E+003	6.1518022E+003	9.1874404E+003	-4.2035297E+001	1.462882710779674E+004	-1.0502702E+000	-3.3011625E-003	5.8812652E+000	2.6368561E+000	2.000000000000000E+000	14	1.0265492E-002	1.1173397E-006	8.0842154E-005	7.2880830E-005	1.0884424E-004	4.2035297E+001
3.2936332E+000	8.3374492E+003	6.6370181E+003	1.0656598E+004	-3.8521503E+001	1.462994043384958E+004	-1.0502361E+000	-3.3034340E-003	7.2806797E+000	2.8241045E+000	2.000000000000000E+000	14	1.0268373E-002	9.6356962E-007	7.3416908E-005	5.8443446E-005	9.3838578E-005	3.8521503E+001
2.4660668E+000	9.7612100E+003	6.8244170E+003	1.1910243E+004	-3.4958797E+001	1.463140836263931E+004	-1.0502528E+000	-3.2970267E-003	9.4569206E+000	3.1048427E+000	2.000000000000000E+000	14	1.0235952E-002	8.5942429E-007	6.8811722E-005	4.8108777E-005	8.3961342E-005	3.4958797E+001
1.8425707E+000	1.1204798E+004	7.0134082E+003	1.3218751E+004	-3.2043644E+001	1.463335475193179E+004	-1.0502409E+000	-3.3005963E-003	1.2315920E+001	3.4669232E+000	2.000000000000000E+000	14	1.0231347E-002	7.7400256E-007	6.4124375E-005	4.0137307E-005	7.5650110E-005	3.2043644E+001
1.3812761E+000	1.2523086E+004	7.0238418E+003	1.4358344E+004	-2.9286823E+001	1.463593414040096E+004	-1.0502342E+000	-3.3053232E-003	1.6404572E+001	3.9255965E+000	2.000000000000000E+000	14	1.0245112E-002	7.1353020E-007	6.0743900E-005	3.4069522E-005	6.9645917E-005	2.9286823E+001
1.0333992E+000	1.3806965E+004	7.1311099E+003	1.5539788E+004	-2.7315739E+001	1.463936698637734E+004	-1.0502481E+000	-3.2959762E-003	2.1597073E+001	4.5479841E+000	2.000000000000000E+000	14	1.0241944E-002	6.5907875E-007	5.7175246E-005	2.9530238E-005	6.4350941E-005	2.7315739E+001
7.7320820E-001	1.4942737E+004	7.2566606E+003	1.6611578E+004	-2.5902658E+001	1.464393982299458E+004	-1.0502572E+000	-3.2959373E-003	2.8365265E+001	5.4130082E+000	2.000000000000000E+000	14	1.0242309E-002	6.1657653E-007	5.4151238E-005	2.6297534E-005	6.0198978E-005	2.5902658E+001
5.7853222E-001	1.6039060E+004	7.5724985E+003	1.7736803E+004	-2.5273336E+001	1.465003529299074E+004	-1.0502398E+000	-3.2931555E-003	3.6328995E+001	6.6218772E+000	2.000000000000000E+000	14	1.0238821E-002	5.7726419E-007	5.0983333E-005	2.4070690E-005	5.6379948E-005	2.5273336E+001
4.3306541E-001	1.7150980E+004	8.0936533E+003	1.8964793E+004	-2.5262913E+001	1.465816315220343E+004	-1.0502588E+000	-3.2931636E-003	4.5406918E+001	8.2701807E+000	2.000000000000000E+000	14	1.0248940E-002	5.4041925E-007	4.7686204E-005	2.2503413E-005	5.2729287E-005	2.5262913E+001
3.2390133E-001	1.8298289E+004	8.8037080E+003	2.0305977E+004	-2.5693226E+001	1.466901719586563E+004	-1.0502509E+000	-3.2940661E-003	5.5813828E+001	1.0491203E+001	2.000000000000000E+000	14	1.0235533E-002	5.0406504E-007	4.4377492E-005	2.1350981E-005	4.9246584E-005	2.5693226E+001
2.4232319E-001	1.9592738E+004	9.7799609E+003	2.1898014E+004	-2.6526653E+001	1.468351209706080E+004	-1.0502473E+000	-3.2901254E-003	6.7156494E+001	1.3395311E+001	2.000000000000000E+000	14	1.0237507E-002	4.6750847E-007	4.0858806E-005	2.0395186E-005	4.5666242E-005	2.6526653E+001
1.8153407E-001	2.0988592E+004	1.0979956E+004	2.3687137E+004	-2.7615829E+001	1.470284694565917E+004	-1.0502492E+000	-3.2860446E-003	7.9847519E+001	1.7156847E+001	2.000000000000000E+000	14	1.0238355E-002	4.3223270E-007	3.7407455E-005	1.9569306E-005	4.2217005E-005	2.7615829E+001
1.3584591E-001	2.2721082E+004	1.2483823E+004	2.5924764E+004	-2.8786060E+001	1.472867299891249E+004	-1.0502404E+000	-3.2782850E-003	9.3848198E+001	2.1761637E+001	2.000000000000000E+000	14	1.0237535E-002	3.9489404E-007	3.3806435E-005	1.8574536E-005	3.8573158E-005	2.8786060E+001
1.0172522E-001	2.4593311E+004	1.4331951E+004	2.8464641E+004	-3.0231842E+001	1.476314879436337E+004	-1.0502447E+000	-3.2709958E-003	1.0916569E+002	2.7674858E+001	2.000000000000000E+000	14	1.0232076E-002	3.5946618E-007	3.0353278E-005	1.7688619E-005	3.5131307E-005	3.0231842E+001
7.6103695E-002	2.7066895E+004	1.6518475E+004	3.1709254E+004	-3.1395023E+001	1.480921861329814E+004	-1.0502433E+000	-3.2601161E-003	1.2660313E+002	3.4356766E+001	2.000000000000000E+000	14	1.0236185E-002	3.2281380E-007	2.6919462E-005	1.6428501E-005	3.1536536E-005	3.1395023E+001
5.6966495E-002	2.9580074E+004	1.9291688E+004	3.5315012E+004	-3.3111797E+001	1.487075226304756E+004	-1.0502478E+000	-3.2445029E-003	1.4482062E+002	4.3216755E+001	2.000000000000000E+000	14	1.0231726E-002	2.8972738E-007	2.3718136E-005	1.5468619E-005	2.8316570E-005	3.3111797E+001
4.2644646E-002	3.3826680E+004	2.2541832E+004	4.0649457E+004	-3.3679176E+001	1.495293764820452E+004	-1.0502717E+000	-3.2180983E-003	1.6556419E+002	5.0913776E+001	2.000000000000000E+000	14	1.0230931E-002	2.5168680E-007	2.0471509E-005	1.3642052E-005	2.4600575E-005	3.3679176E+001
3.1913798E-002	3.7919223E+004	2.6275430E+004	4.6133129E+004	-3.4719315E+001	1.506274717806012E+004	-1.0502425E+000	-3.1939601E-003	1.8979808E+002	6.1569504E+001	2.000000000000000E+000	14	1.0235624E-002	2.2187145E-007	1.7816959E-005	1.2345936E-005	2.1676396E-005	3.4719315E+001
2.3876827E-002	4.6010070E+004	2.9608377E+004	5.4713641E+004	-3.2762070E+001	1.520950463572401E+004	-1.0502441E+000	-3.1572306E-003	2.2512767E+002	6.5927544E+001	2.000000000000000E+000	14	1.0234341E-002	1.8705282E-007	1.5369569E-005	9.8906166E-006	1.8276978E-005	3.2762070E+001
1.7841151E-002	5.1408211E+004	3.2122895E+004	6.0619176E+004	-3.1999582E+001	1.540589743846556E+004	-1.0502472E+000	-3.1118307E-003	2.7770428E+002	7.7981552E+001	2.000000000000000E+000	14	1.0235392E-002	1.6884742E-007	1.3989829E-005	8.7416738E-006	1.6496429E-005	3.1999582E+001
1.3377565E-002	6.4626453E+004	3.2967965E+004	7.2549742E+004	-2.7027544E+001	1.566780648135889E+004	-1.0502412E+000	-3.0472199E-003	3.6087012E+002	7.4518387E+001	2.000000000000000E+000	14	1.0232918E-002	1.4104693E-007	1.2278309E-005	6.2635481E-006	1.3783647E-005	2.7027544E+001
1.0005763E-002	6.6802320E+004	3.3712059E+004	7.4826820E+004	-2.6777979E+001	1.601796153532370E+004	-1.0502436E+000	-2.9672540E-003	4.7182904E+002	9.5772461E+001	2.000000000000000E+000	14	1.0234976E-002	1.3678219E-007	1.1931003E-005	6.0210291E-006	1.3364192E-005	2.6777979E+001