EC-Lab ASCII FILE
Nb header lines : 61                          

Potentio Electrochemical Impedance Spectroscopy

Run on channel : 1 (SN 12040)
User : kknu
CE vs. WE compliance from -10 V to 10 V
Electrode connection : standard
Ewe ctrl range : min = -1.50 V, max = 0.50 V
Safety Limits :
	Do not start on E overload
Acquisition started on : xx/xx/xxxx xx:xx:xx
Technique started on : xx/xx/xxxx xx:xx:xx
Saved on :
	File : xxx
	Directory : xxx\
	Host : xxx.xxx.xxx.xx
Device : VSP (SN xxxx)
Address : xxx.xxx.xx.xxx
EC-Lab for windows v11.16 (software)
Internet server v11.16 (firmware)
Command interpretor v11.16 (firmware)
Electrode material : 
Initial state : 
Electrolyte : 
Comments : 
Electrode surface area : 0.001 cm²
Characteristic mass : 0.001 g
Equivalent Weight : 0.000 g/eq.
Density : 0.000 g/cm3
Cycle Definition : Charge/Discharge alternance
Mode                Single sine         
E (V)               -1.1000             
vs.                 Ref                 
tE (h:m:s)          0:01:0.0000         
record              0                   
dI                  0.000               
unit dI             mA                  
dt (s)              0.000               
fi                  200.000             
unit fi             kHz                 
ff                  10.000              
unit ff             mHz                 
Nd                  8                   
Points              per decade          
spacing             Logarithmic         
Va (mV)             10.0                
pw                  0.50                
Na                  3                   
corr                0                   
E range min (V)     -1.500              
E range max (V)     0.500               
I Range             Auto                
Bandwidth           5                   
nc cycles           0                   
goto Ns'            0                   
nr cycles           1                   
inc. cycle          1                   

freq/Hz	Re(Z)/Ohm	-Im(Z)/Ohm	|Z|/Ohm	Phase(Z)/deg	time/s	<Ewe>/V	<I>/mA	Cs/µF	Cp/µF	cycle number	I Range	|Ewe|/V	|I|/A	Re(Y)/Ohm-1	Im(Y)/Ohm-1	|Y|/Ohm-1	Phase(Y)/deg	
2.0001948E+005	4.2492365E+002	3.7577924E+002	5.6724786E+002	-4.1487789E+001	1.727976517335727E+004	-1.1015180E+000	-5.2660145E-003	2.1174592E-003	9.2925492E-004	1.000000000000000E+000	12	1.0312537E-002	1.8179948E-005	1.3205813E-003	1.1678500E-003	1.7628978E-003	4.1487789E+001
1.4967770E+005	3.9626755E+002	8.2815405E+002	9.1807794E+002	-6.4429123E+001	1.728044817770971E+004	-1.1005892E+000	-4.1033491E-003	1.2839611E-003	1.0447564E-003	1.000000000000000E+000	12	1.0202343E-002	1.1112719E-005	4.7014235E-004	9.8254404E-004	1.0892322E-003	6.4429123E+001
1.1201170E+005	8.5482782E+002	1.3166176E+003	1.5697810E+003	-5.7005928E+001	1.728113116014216E+004	-1.1005166E+000	-4.0968475E-003	1.0791880E-003	7.5916864E-004	1.000000000000000E+000	12	1.0199385E-002	6.4973297E-006	3.4689694E-004	5.3429545E-004	6.3703151E-004	5.7005928E+001
8.3828102E+004	1.5156783E+003	1.3080200E+003	2.0020482E+003	-4.0793968E+001	1.728168817936862E+004	-1.1004291E+000	-4.0928978E-003	1.4514968E-003	6.1957777E-004	1.000000000000000E+000	12	1.0834106E-002	5.4115112E-006	3.7814467E-004	3.2633627E-004	4.9948849E-004	4.0793968E+001
6.2734359E+004	1.8993096E+003	9.9715741E+002	2.1451572E+003	-2.7699944E+001	1.728224516190181E+004	-1.1004812E+000	-4.0972568E-003	2.5441984E-003	5.4974353E-004	1.000000000000000E+000	12	1.0455391E-002	4.8739512E-006	4.1274089E-004	2.1669328E-004	4.6616630E-004	2.7699944E+001
4.6953109E+004	2.0613062E+003	7.4600525E+002	2.1921467E+003	-1.9895645E+001	1.728280216022150E+004	-1.1004795E+000	-4.0899543E-003	4.5437440E-003	5.2620919E-004	1.000000000000000E+000	12	1.0227565E-002	4.6655473E-006	4.2894666E-004	1.5523964E-004	4.5617385E-004	1.9895645E+001
3.5136707E+004	2.1270959E+003	5.4034827E+002	2.1946558E+003	-1.4253407E+001	1.728335917078133E+004	-1.1004335E+000	-4.0950216E-003	8.3827274E-003	5.0815946E-004	1.000000000000000E+000	12	1.0237712E-002	4.6648374E-006	4.4162566E-004	1.1218659E-004	4.5565233E-004	1.4253407E+001
2.6298820E+004	2.1383530E+003	3.9413632E+002	2.1743728E+003	-1.0443415E+001	1.728391616427444E+004	-1.1004623E+000	-4.0933634E-003	1.5354561E-002	5.0450134E-004	1.000000000000000E+000	12	9.9493992E-003	4.5757561E-006	4.5228418E-004	8.3363986E-005	4.5990275E-004	1.0443415E+001
1.9677732E+004	2.1705159E+003	2.9890399E+002	2.1910005E+003	-7.8409429E+000	1.728434716528159E+004	-1.1004814E+000	-4.1048769E-003	2.7059101E-002	5.0360709E-004	1.000000000000000E+000	12	1.0622441E-002	4.8482148E-006	4.5214532E-004	6.2265397E-005	4.5641250E-004	7.8409429E+000
1.4726557E+004	2.1808701E+003	2.3038039E+002	2.1930046E+003	-6.0301852E+000	1.728490316362801E+004	-1.1004317E+000	-4.0891157E-003	4.6910863E-002	5.1770854E-004	1.000000000000000E+000	12	1.0100188E-002	4.6056389E-006	4.5347222E-004	4.7903406E-005	4.5599538E-004	6.0301852E+000
1.1025388E+004	2.1766016E+003	1.7161397E+002	2.1833564E+003	-4.5081549E+000	1.728533417996846E+004	-1.1004245E+000	-4.0864330E-003	8.4115036E-002	5.1967235E-004	1.000000000000000E+000	12	1.0304026E-002	4.7193516E-006	4.5659341E-004	3.6000070E-005	4.5801041E-004	4.5081549E+000
8.3251924E+003	2.1829543E+003	1.4192134E+002	2.1875630E+003	-3.7197599E+000	1.728583166497876E+004	-1.1002678E+000	-4.0530483E-003	1.3470328E-001	5.6696002E-004	1.000000000000000E+000	12	1.0441945E-002	4.7733233E-006	4.5616666E-004	2.9656958E-005	4.5712970E-004	3.7197599E+000
6.1954932E+003	2.1861721E+003	1.2340367E+002	2.1896523E+003	-3.2307677E+000	1.728646891159572E+004	-1.1003968E+000	-4.1057896E-003	2.0816907E-001	6.6118350E-004	1.000000000000000E+000	12	1.0512865E-002	4.8011570E-006	4.5596765E-004	2.5738176E-005	4.5669349E-004	3.2307677E+000
4.6214780E+003	2.1923655E+003	9.0249115E+001	2.1942222E+003	-2.3572600E+000	1.728722377995157E+004	-1.1004809E+000	-4.1357274E-003	3.8158935E-001	6.4553675E-004	1.000000000000000E+000	12	1.0564272E-002	4.8145866E-006	4.5535670E-004	1.8744839E-005	4.5574235E-004	2.3572600E+000
3.4561052E+003	2.1946309E+003	7.9856651E+001	2.1960833E+003	-2.0839183E+000	1.728797775750741E+004	-1.1004293E+000	-4.1061807E-003	5.7666296E-001	7.6251198E-004	1.000000000000000E+000	12	1.0623649E-002	4.8375437E-006	4.5505498E-004	1.6558215E-005	4.5535614E-004	2.0839183E+000
2.5858269E+003	2.1881006E+003	7.8927811E+001	2.1895237E+003	-2.0658422E+000	1.728873175815656E+004	-1.1004602E+000	-4.1012811E-003	7.7981329E-001	1.0133312E-003	1.000000000000000E+000	12	1.0602404E-002	4.8423335E-006	4.5642350E-004	1.6463826E-005	4.5672033E-004	2.0658422E+000
1.9356189E+003	2.1991465E+003	7.1520699E+001	2.2003091E+003	-1.8627183E+000	1.728948578309902E+004	-1.1004291E+000	-4.1113971E-003	1.1496576E+000	1.2146877E-003	1.000000000000000E+000	12	1.0617529E-002	4.8254715E-006	4.5424144E-004	1.4772852E-005	4.5448160E-004	1.8627183E+000
1.4486094E+003	2.2000630E+003	6.8751343E+001	2.2011370E+003	-1.7898943E+000	1.729024004209481E+004	-1.1004224E+000	-4.0808255E-003	1.5980401E+000	1.5590352E-003	1.000000000000000E+000	12	1.0635410E-002	4.8317806E-006	4.5408902E-004	1.4190153E-005	4.5431068E-004	1.7898943E+000
1.0839595E+003	2.2036458E+003	9.5639748E+001	2.2057202E+003	-2.4851167E+000	1.729099403794398E+004	-1.1004648E+000	-4.0980396E-003	1.5352131E+000	2.8863212E-003	1.000000000000000E+000	12	1.0593745E-002	4.8028510E-006	4.5294029E-004	1.9657920E-005	4.5336667E-004	2.4851167E+000
8.1129767E+002	2.2034373E+003	1.0835541E+002	2.2060999E+003	-2.8152881E+000	1.729174651456636E+004	-1.1005355E+000	-4.1139494E-003	1.8104615E+000	4.3675727E-003	1.000000000000000E+000	12	1.0626782E-002	4.8169995E-006	4.5274154E-004	2.2263850E-005	4.5328864E-004	2.8152881E+000
6.0752716E+002	2.2155981E+003	1.2863954E+002	2.2193293E+003	-3.3229122E+000	1.729249698308203E+004	-1.1004623E+000	-4.0908670E-003	2.0364790E+000	6.8420367E-003	1.000000000000000E+000	12	1.0601557E-002	4.7769190E-006	4.4982901E-004	2.6117465E-005	4.5058658E-004	3.3229122E+000
4.5456351E+002	2.2116316E+003	1.7668991E+002	2.2186785E+003	-4.5677271E+000	1.729325100813119E+004	-1.1004479E+000	-4.1017840E-003	1.9815902E+000	1.2567491E-002	1.000000000000000E+000	12	1.0598482E-002	4.7769345E-006	4.4928724E-004	3.5894096E-005	4.5071877E-004	4.5677271E+000
3.4010876E+002	2.2437310E+003	2.0195297E+002	2.2528013E+003	-5.1431999E+000	1.729400476446032E+004	-1.1004575E+000	-4.1010575E-003	2.3171389E+000	1.8621163E-002	1.000000000000000E+000	12	1.0631163E-002	4.7190861E-006	4.4210459E-004	3.9792798E-005	4.4389180E-004	5.1431999E+000
2.5443001E+002	2.2445747E+003	2.5511610E+002	2.2590264E+003	-6.4843535E+000	1.729476028041617E+004	-1.1004585E+000	-4.0790932E-003	2.4519632E+000	3.1271383E-002	1.000000000000000E+000	12	1.0605275E-002	4.6946220E-006	4.3983673E-004	4.9991399E-005	4.4266859E-004	6.4843535E+000
1.9054874E+002	2.2702656E+003	3.2947559E+002	2.2940488E+003	-8.2574825E+000	1.729551123253186E+004	-1.1004353E+000	-4.1080061E-003	2.5350749E+000	5.2291606E-002	1.000000000000000E+000	12	1.0658216E-002	4.6460282E-006	4.3139127E-004	6.2606283E-005	4.3591051E-004	8.2574825E+000
1.4249214E+002	2.3000288E+003	4.2620044E+002	2.3391836E+003	-1.0497960E+001	1.729627636659483E+004	-1.1004298E+000	-4.1163336E-003	2.6206882E+000	8.6999051E-002	1.000000000000000E+000	12	1.0617711E-002	4.5390666E-006	4.2034383E-004	7.7890647E-005	4.2749959E-004	1.0497960E+001
1.0667264E+002	2.3407705E+003	5.5973419E+002	2.4067632E+003	-1.3448261E+001	1.729726367629506E+004	-1.1005290E+000	-4.2275223E-003	2.6655402E+000	1.4417243E-001	1.000000000000000E+000	13	1.0677201E-002	4.4363319E-006	4.0410305E-004	9.6630698E-005	4.1549580E-004	1.3448261E+001
7.9821213E+001	2.3741821E+003	6.8548193E+002	2.4711589E+003	-1.6104666E+001	1.729801929238427E+004	-1.1005244E+000	-4.2421948E-003	2.9087460E+000	2.2381875E-001	1.000000000000000E+000	13	1.0624304E-002	4.2993206E-006	3.8878786E-004	1.1225214E-004	4.0466842E-004	1.6104666E+001
5.9789532E+001	2.5879268E+003	7.8728827E+002	2.7050300E+003	-1.6920591E+001	1.729877554908686E+004	-1.1004863E+000	-4.2278203E-003	3.3811250E+000	2.8640762E-001	1.000000000000000E+000	13	1.0593926E-002	3.9163801E-006	3.5367778E-004	1.0759438E-004	3.6968166E-004	1.6920591E+001
4.4728039E+001	2.5453013E+003	1.1241794E+003	2.7825056E+003	-2.3829540E+001	1.729953305162955E+004	-1.1003994E+000	-4.2205052E-003	3.1652255E+000	5.1665878E-001	1.000000000000000E+000	13	1.0672521E-002	3.8355793E-006	3.2875099E-004	1.4519897E-004	3.5938830E-004	2.3829540E+001
3.3427559E+001	2.6803608E+003	1.4445276E+003	3.0448308E+003	-2.8321571E+001	1.730031924030685E+004	-1.1004229E+000	-4.2187930E-003	3.2960186E+000	7.4184811E-001	1.000000000000000E+000	13	1.0649205E-002	3.4974703E-006	2.8911253E-004	1.5581150E-004	3.2842546E-004	2.8321571E+001
2.5040062E+001	2.8848799E+003	1.8231395E+003	3.4126777E+003	-3.2291405E+001	1.730107152596931E+004	-1.1004145E+000	-4.2184577E-003	3.4863007E+000	9.9497944E-001	1.000000000000000E+000	13	1.0651256E-002	3.1210845E-006	2.4770634E-004	1.5654144E-004	2.9302502E-004	3.2291405E+001
1.8735012E+001	3.1646501E+003	2.2589106E+003	3.8881470E+003	-3.5519047E+001	1.730187132358056E+004	-1.1004242E+000	-4.2194412E-003	3.7606862E+000	1.2693455E+000	1.000000000000000E+000	13	1.0604692E-002	2.7274411E-006	2.0933428E-004	1.4942170E-004	2.5719192E-004	3.5519047E+001
1.4017643E+001	3.6159553E+003	2.7235623E+003	4.5269111E+003	-3.6987309E+001	1.730267387335208E+004	-1.1004614E+000	-4.2353123E-003	4.1687689E+000	1.5089628E+000	1.000000000000000E+000	13	1.0591966E-002	2.3397777E-006	1.7644896E-004	1.3290257E-004	2.2090117E-004	3.6987309E+001
1.0500673E+001	4.2019873E+003	3.2350684E+003	5.3030522E+003	-3.7592319E+001	1.730339427725296E+004	-1.1004522E+000	-4.2207330E-003	4.6851072E+000	1.7435509E+000	1.000000000000000E+000	13	1.0600098E-002	1.9988674E-006	1.4941799E-004	1.1503544E-004	1.8857064E-004	3.7592319E+001
7.8596544E+000	4.9270518E+003	3.6834690E+003	6.1517300E+003	-3.6781830E+001	1.730433732367109E+004	-1.1004395E+000	-4.2274501E-003	5.4974289E+000	1.9709661E+000	1.000000000000000E+000	13	1.0660902E-002	1.7329925E-006	1.3019447E-004	9.7333534E-005	1.6255589E-004	3.6781830E+001
5.8829055E+000	5.7976758E+003	4.0185964E+003	7.0542300E+003	-3.4727348E+001	1.730498680316861E+004	-1.1004412E+000	-4.2237607E-003	6.7321510E+000	2.1847584E+000	1.000000000000000E+000	13	1.0622083E-002	1.5057750E-006	1.1650772E-004	8.0756072E-005	1.4175892E-004	3.4727348E+001
4.3989296E+000	6.7143149E+003	4.2349839E+003	7.9383320E+003	-3.2241249E+001	1.730583618352894E+004	-1.1004326E+000	-4.2268112E-003	8.5432158E+000	2.4314556E+000	1.000000000000000E+000	13	1.0624996E-002	1.3384420E-006	1.0654748E-004	6.7203706E-005	1.2597104E-004	3.2241249E+001
3.2936332E+000	7.6587686E+003	4.3717051E+003	8.8186475E+003	-2.9718178E+001	1.730694952523510E+004	-1.1004360E+000	-4.2240070E-003	1.1053353E+001	2.7163880E+000	1.000000000000000E+000	13	1.0625710E-002	1.2049138E-006	9.8481578E-005	5.6214318E-005	1.1339608E-004	2.9718178E+001
2.4660668E+000	8.4496611E+003	4.3461123E+003	9.5018662E+003	-2.7219181E+001	1.730841742978489E+004	-1.1004400E+000	-4.2194682E-003	1.4849586E+001	3.1066935E+000	1.000000000000000E+000	13	1.0645796E-002	1.1203899E-006	9.3588278E-005	4.8137455E-005	1.0524249E-004	2.7219181E+001
1.8425707E+000	9.3084707E+003	4.3971294E+003	1.0294774E+004	-2.5285084E+001	1.731036370299733E+004	-1.1004226E+000	-4.2095161E-003	1.9643854E+001	3.5836992E+000	1.000000000000000E+000	13	1.0622782E-002	1.0318615E-006	8.7830362E-005	4.1489253E-005	9.7136661E-005	2.5285084E+001
1.3812761E+000	9.9774814E+003	4.4473403E+003	1.0923780E+004	-2.4024336E+001	1.731294416111987E+004	-1.1004200E+000	-4.2080507E-003	2.5908319E+001	4.2943168E+000	1.000000000000000E+000	13	1.0626460E-002	9.7278235E-007	8.3613231E-005	3.7269572E-005	9.1543399E-005	2.4024336E+001
1.0333992E+000	1.0678203E+004	4.5992715E+003	1.1626578E+004	-2.3302313E+001	1.731637606096291E+004	-1.1004339E+000	-4.2046388E-003	3.3485977E+001	5.2400718E+000	1.000000000000000E+000	13	1.0625277E-002	9.1387824E-007	7.8994046E-005	3.4023989E-005	8.6009830E-005	2.3302313E+001
7.7320820E-001	1.1410581E+004	4.9377622E+003	1.2433136E+004	-2.3399841E+001	1.732094889347343E+004	-1.1004339E+000	-4.2010034E-003	4.1686314E+001	6.5749507E+000	1.000000000000000E+000	13	1.0628432E-002	8.5484726E-007	7.3815303E-005	3.1942494E-005	8.0430233E-005	2.3399841E+001
5.7853222E-001	1.2107851E+004	5.2686870E+003	1.3204511E+004	-2.3516092E+001	1.732704521242960E+004	-1.1004251E+000	-4.1946247E-003	5.2214390E+001	8.3128576E+000	1.000000000000000E+000	13	1.0629439E-002	8.0498540E-007	6.9442031E-005	3.0217449E-005	7.5731696E-005	2.3516092E+001
4.3306541E-001	1.2888501E+004	5.7842534E+003	1.4126962E+004	-2.4170151E+001	1.733752840615425E+004	-1.1004319E+000	-4.2067384E-003	6.3535923E+001	1.0651638E+001	1.000000000000000E+000	14	1.0634080E-002	7.5275062E-007	6.4581014E-005	2.8983428E-005	7.0786627E-005	2.4170151E+001
3.2390133E-001	1.3683015E+004	6.4643159E+003	1.5133151E+004	-2.5287624E+001	1.734838242192310E+004	-1.1004211E+000	-4.1998480E-003	7.6012474E+001	1.3869834E+001	1.000000000000000E+000	14	1.0627820E-002	7.0228731E-007	5.9747952E-005	2.8226939E-005	6.6080087E-005	2.5287624E+001
2.4232319E-001	1.4675755E+004	7.3682144E+003	1.6421582E+004	-2.6659723E+001	1.736287735810486E+004	-1.1004301E+000	-4.1941260E-003	8.9138000E+001	1.7945576E+001	1.000000000000000E+000	14	1.0630012E-002	6.4731961E-007	5.4421493E-005	2.7323244E-005	6.0895472E-005	2.6659723E+001
1.8153407E-001	1.5764680E+004	8.4600146E+003	1.7891254E+004	-2.8219948E+001	1.738221212584991E+004	-1.1004252E+000	-4.1884137E-003	1.0363129E+002	2.3171362E+001	1.000000000000000E+000	14	1.0626576E-002	5.9395370E-007	4.9249702E-005	2.6429538E-005	5.5893233E-005	2.8219948E+001
1.3584591E-001	1.7060492E+004	9.8621006E+003	1.9705873E+004	-3.0030771E+001	1.740803818379657E+004	-1.1004344E+000	-4.1913432E-003	1.1879663E+002	2.9754429E+001	1.000000000000000E+000	14	1.0623168E-002	5.3908639E-007	4.3933946E-005	2.5396746E-005	5.0746294E-005	3.0030771E+001
1.0172522E-001	1.8714566E+004	1.1554880E+004	2.1994322E+004	-3.1692307E+001	1.744251398871411E+004	-1.1004306E+000	-4.1992422E-003	1.3540230E+002	3.7371090E+001	1.000000000000000E+000	14	1.0626029E-002	4.8312603E-007	3.8686423E-005	2.3886047E-005	4.5466280E-005	3.1692307E+001
7.6103695E-002	2.0608588E+004	1.3618198E+004	2.4701604E+004	-3.3456810E+001	1.748858382351566E+004	-1.1004282E+000	-4.1990462E-003	1.5356589E+002	4.6674938E+001	1.000000000000000E+000	14	1.0625313E-002	4.3014668E-007	3.3775203E-005	2.2318723E-005	4.0483203E-005	3.3456810E+001
5.6966495E-002	2.2988309E+004	1.6133249E+004	2.8084588E+004	-3.5061268E+001	1.755011747801164E+004	-1.1004375E+000	-4.1805496E-003	1.7317245E+002	5.7146069E+001	1.000000000000000E+000	14	1.0622565E-002	3.7823466E-007	2.9145460E-005	2.0454352E-005	3.5606718E-005	3.5061268E+001
4.2644646E-002	2.7069949E+004	1.9412783E+004	3.3311234E+004	-3.5645596E+001	1.763230296807527E+004	-1.1004217E+000	-4.1383831E-003	1.9225064E+002	6.5292297E+001	1.000000000000000E+000	14	1.0623571E-002	3.1891855E-007	2.4395291E-005	1.7494694E-005	3.0019903E-005	3.5645596E+001
3.1913798E-002	3.1013768E+004	2.2117611E+004	3.8092551E+004	-3.5494740E+001	1.774211146622419E+004	-1.1004308E+000	-4.0865638E-003	2.2547760E+002	7.6015076E+001	1.000000000000000E+000	14	1.0622934E-002	2.7887171E-007	2.1373438E-005	1.5242565E-005	2.6251852E-005	3.5494740E+001
2.3876827E-002	3.8715668E+004	2.5563654E+004	4.6394000E+004	-3.3436474E+001	1.788886894634151E+004	-1.1004280E+000	-4.0359767E-003	2.6074774E+002	7.9166748E+001	1.000000000000000E+000	14	1.0624169E-002	2.2899879E-007	1.7987180E-005	1.1876797E-005	2.1554511E-005	3.3436474E+001
1.7841151E-002	4.5350602E+004	2.6867908E+004	5.2712063E+004	-3.0644569E+001	1.808526073438965E+004	-1.1004337E+000	-4.0262952E-003	3.3201938E+002	8.6260323E+001	1.000000000000000E+000	14	1.0624520E-002	2.0155767E-007	1.6321612E-005	9.6697186E-006	1.8970990E-005	3.0644569E+001
1.3377565E-002	5.8219121E+004	2.8631980E+004	6.4878781E+004	-2.6187815E+001	1.834717076992302E+004	-1.1004322E+000	-3.8671424E-003	4.1551978E+002	8.0926193E+001	1.000000000000000E+000	14	1.0625069E-002	1.6376801E-007	1.3831213E-005	6.8021473E-006	1.5413360E-005	2.6187815E+001
1.0005763E-002	5.7784688E+004	2.5871313E+004	6.3311887E+004	-2.4118977E+001	1.869732681871456E+004	-1.1004289E+000	-3.7138308E-003	6.1482495E+002	1.0266393E+002	1.000000000000000E+000	14	1.0626229E-002	1.6783940E-007	1.4415916E-005	6.4542819E-006	1.5794822E-005	2.4118977E+001
2.0001948E+005	4.0611087E+002	3.7841180E+002	5.5508698E+002	-4.2977901E+001	1.875902923383188E+004	-1.1004391E+000	-2.4217125E-003	2.1027282E-003	9.7721571E-004	2.000000000000000E+000	12	1.0110714E-002	1.8214647E-005	1.3180218E-003	1.2281251E-003	1.8015195E-003	4.2977901E+001
1.4967770E+005	4.0267441E+002	8.5057373E+002	9.4107513E+002	-6.4666420E+001	1.875971223439765E+004	-1.1006124E+000	-3.5559870E-003	1.2501181E-003	1.0212366E-003	2.000000000000000E+000	12	1.0128374E-002	1.0762556E-005	4.5467957E-004	9.6042478E-004	1.0626144E-003	6.4666420E+001
1.1201170E+005	8.7618921E+002	1.3289779E+003	1.5918197E+003	-5.6603313E+001	1.876039524608344E+004	-1.1005076E+000	-3.5350660E-003	1.0691509E-003	7.4522389E-004	2.000000000000000E+000	12	1.0178994E-002	6.3945649E-006	3.4578817E-004	5.2448129E-004	6.2821183E-004	5.6603313E+001
8.3828102E+004	1.5375453E+003	1.3001371E+003	2.0135546E+003	-4.0217617E+001	1.876095225397660E+004	-1.1004894E+000	-3.5350099E-003	1.4602976E-003	6.0882553E-004	2.000000000000000E+000	12	1.0775766E-002	5.3516137E-006	3.7922862E-004	3.2067296E-004	4.9663417E-004	4.0217617E+001
6.2734359E+004	1.9079637E+003	9.8927905E+002	2.1491855E+003	-2.7406736E+001	1.876150924000307E+004	-1.1004556E+000	-3.5107541E-003	2.5644596E-003	5.4335751E-004	2.000000000000000E+000	12	1.0396827E-002	4.8375659E-006	4.1306869E-004	2.1417609E-004	4.6529254E-004	2.7406736E+001
4.6953109E+004	2.0705674E+003	7.1337097E+002	2.1900107E+003	-1.9010326E+001	1.876206625384279E+004	-1.1005149E+000	-3.5681711E-003	4.7516050E-003	5.0417200E-004	2.000000000000000E+000	12	1.0280606E-002	4.6943178E-006	4.3171472E-004	1.4873834E-004	4.5661876E-004	1.9010326E+001
3.5136707E+004	2.1338120E+003	5.2620319E+002	2.1977361E+003	-1.3852880E+001	1.876262323474928E+004	-1.1004713E+000	-3.5335012E-003	8.6080665E-003	4.9347081E-004	2.000000000000000E+000	12	1.0109385E-002	4.5999086E-006	4.4177903E-004	1.0894376E-004	4.5501368E-004	1.3852880E+001
2.6298820E+004	2.1458628E+003	4.0850125E+002	2.1843994E+003	-1.0778255E+001	1.876318023274909E+004	-1.1004417E+000	-3.5580550E-003	1.4814619E-002	5.1809946E-004	2.000000000000000E+000	12	1.0172274E-002	4.6567829E-006	4.4971550E-004	8.5610940E-005	4.5779173E-004	1.0778255E+001
1.9677732E+004	2.1579578E+003	2.9590015E+002	2.1781504E+003	-7.8077316E+000	1.876361124735617E+004	-1.1004539E+000	-3.5474550E-003	2.7333792E-002	5.0444587E-004	2.000000000000000E+000	12	1.0808911E-002	4.9624264E-006	4.5484901E-004	6.2369094E-005	4.5910513E-004	7.8077316E+000
1.4726557E+004	2.1733721E+003	2.1907098E+002	2.1843850E+003	-5.7558441E+000	1.876416823303598E+004	-1.1004701E+000	-3.5587631E-003	4.9332608E-002	4.9618701E-004	2.000000000000000E+000	12	1.0068007E-002	4.6090809E-006	4.5548668E-004	4.5912027E-005	4.5779475E-004	5.7558441E+000
1.1025388E+004	2.1688674E+003	1.7161491E+002	2.1756465E+003	-4.5241890E+000	1.876459924881643E+004	-1.1005191E+000	-3.5438777E-003	8.4114566E-002	5.2336493E-004	2.000000000000000E+000	12	1.0260917E-002	4.7162612E-006	4.5820134E-004	3.6255875E-005	4.5963351E-004	4.5241890E+000
8.3251924E+003	2.1785732E+003	1.3603369E+002	2.1828162E+003	-3.5730035E+000	1.876509673470666E+004	-1.1003990E+000	-3.5194543E-003	1.4053334E-001	5.4580561E-004	2.000000000000000E+000	12	1.0433220E-002	4.7797066E-006	4.5723328E-004	2.8550396E-005	4.5812377E-004	3.5730035E+000
6.1954932E+003	2.1827490E+003	1.2096131E+002	2.1860981E+003	-3.1719134E+000	1.876573400780369E+004	-1.1004559E+000	-3.5589680E-003	2.1237226E-001	6.5020670E-004	2.000000000000000E+000	12	1.0527547E-002	4.8156789E-006	4.5673520E-004	2.5310876E-005	4.5743599E-004	3.1719134E+000
4.6214780E+003	2.1841392E+003	8.7579735E+001	2.1858943E+003	-2.2962193E+000	1.876648882863956E+004	-1.1004933E+000	-3.5534350E-003	3.9322001E-001	6.3122553E-004	2.000000000000000E+000	12	1.0537244E-002	4.8205648E-006	4.5711131E-004	1.8329276E-005	4.5747866E-004	2.2962193E+000
3.4561052E+003	2.1902710E+003	8.8907776E+001	2.1920747E+003	-2.3244820E+000	1.876724285872869E+004	-1.1004117E+000	-3.5559686E-003	5.1795667E-001	8.5204438E-004	2.000000000000000E+000	12	1.0585857E-002	4.8291495E-006	4.5581345E-004	1.8502442E-005	4.5618883E-004	2.3244820E+000
2.5858269E+003	2.1962688E+003	6.8679405E+001	2.1973423E+003	-1.7911098E+000	1.876799686039117E+004	-1.1004862E+000	-3.5514790E-003	8.9617771E-001	8.7549118E-004	2.000000000000000E+000	12	1.0592370E-002	4.8205375E-006	4.5487288E-004	1.4224307E-005	4.5509523E-004	1.7911098E+000
1.9356189E+003	2.1874280E+003	6.9678314E+001	2.1885374E+003	-1.8244824E+000	1.876875081506703E+004	-1.1004148E+000	-3.5782126E-003	1.1800561E+000	1.1961620E-003	2.000000000000000E+000	12	1.0560047E-002	4.8251618E-006	4.5669454E-004	1.4547545E-005	4.5692618E-004	1.8244824E+000
1.4486094E+003	2.1961057E+003	8.4040932E+001	2.1977131E+003	-2.1915350E+000	1.876950507248950E+004	-1.1004493E+000	-3.5571610E-003	1.3073082E+000	1.9116910E-003	2.000000000000000E+000	12	1.0626516E-002	4.8352608E-006	4.5468565E-004	1.7399985E-005	4.5501845E-004	2.1915350E+000
1.0839595E+003	2.2007507E+003	8.2709450E+001	2.2023044E+003	-2.1522987E+000	1.877025907905865E+004	-1.1004786E+000	-3.5590983E-003	1.7752191E+000	2.5038454E-003	2.000000000000000E+000	12	1.0622510E-002	4.8233610E-006	4.5374947E-004	1.7052984E-005	4.5406981E-004	2.1522987E+000
8.1129767E+002	2.2077639E+003	1.1120277E+002	2.2105627E+003	-2.8834920E+000	1.877101156064100E+004	-1.1004319E+000	-3.5434868E-003	1.7641044E+000	4.4642636E-003	2.000000000000000E+000	12	1.0662161E-002	4.8232791E-006	4.5180073E-004	2.2756734E-005	4.5237350E-004	2.8834920E+000
6.0752716E+002	2.2119702E+003	1.4430388E+002	2.2166724E+003	-3.7325563E+000	1.877176206521000E+004	-1.1004574E+000	-3.5639235E-003	1.8154172E+000	7.6935966E-003	2.000000000000000E+000	12	1.0624186E-002	4.7928534E-006	4.5016973E-004	2.9368042E-005	4.5112666E-004	3.7325563E+000
4.5456351E+002	2.2172534E+003	1.6999403E+002	2.2237605E+003	-4.3842187E+000	1.877251609452581E+004	-1.1004245E+000	-3.5721019E-003	2.0596428E+000	1.2036029E-002	2.000000000000000E+000	12	1.0626099E-002	4.7784370E-006	4.4837286E-004	3.4376186E-005	4.4968873E-004	4.3842187E+000
3.4010876E+002	2.2397588E+003	2.1078087E+002	2.2496550E+003	-5.3761992E+000	1.877326985677498E+004	-1.1004076E+000	-3.5655443E-003	2.2200928E+000	1.9489544E-002	2.000000000000000E+000	12	1.0663603E-002	4.7401054E-006	4.4255718E-004	4.1648498E-005	4.4451261E-004	5.3761992E+000
2.5443001E+002	2.2433677E+003	2.5644373E+002	2.2579773E+003	-6.5212855E+000	1.877402535129082E+004	-1.1004714E+000	-3.5367985E-003	2.4392693E+000	3.1463332E-002	2.000000000000000E+000	12	1.0643127E-002	4.7135673E-006	4.4000873E-004	5.0298255E-005	4.4287424E-004	6.5212855E+000
1.9054874E+002	2.2607219E+003	3.3366830E+002	2.2852129E+003	-8.3958807E+000	1.877477634113980E+004	-1.1005094E+000	-3.5627685E-003	2.5032203E+000	5.3367354E-002	2.000000000000000E+000	12	1.0599308E-002	4.6382147E-006	4.3290621E-004	6.3894222E-005	4.3759600E-004	8.3958807E+000
1.4249214E+002	2.3034482E+003	4.2449918E+002	2.3422368E+003	-1.0441800E+001	1.877554141880281E+004	-1.1004088E+000	-3.5794049E-003	2.6311910E+000	8.6426012E-002	2.000000000000000E+000	12	1.0624799E-002	4.5361762E-006	4.1987194E-004	7.7377597E-005	4.2694231E-004	1.0441800E+001
1.0667264E+002	2.3234124E+003	5.4050916E+002	2.3854548E+003	-1.3096121E+001	1.877652877396980E+004	-1.1004537E+000	-3.7021120E-003	2.7603493E+000	1.4171889E-001	2.000000000000000E+000	13	1.0631097E-002	4.4566327E-006	4.0830424E-004	9.4986230E-005	4.1920727E-004	1.3096121E+001
7.9821213E+001	2.3788704E+003	6.8948669E+002	2.4767754E+003	-1.6163589E+001	1.877728436232568E+004	-1.1004759E+000	-3.6811356E-003	2.8918512E+000	2.2410651E-001	2.000000000000000E+000	13	1.0665680E-002	4.3062769E-006	3.8779082E-004	1.1239646E-004	4.0375078E-004	1.6163589E+001
5.9789532E+001	2.6153704E+003	9.4505060E+002	2.7808782E+003	-1.9867060E+001	1.877804059473483E+004	-1.1004077E+000	-3.6793805E-003	2.8166957E+000	3.2530153E-001	2.000000000000000E+000	13	1.0686462E-002	3.8428370E-006	3.3819664E-004	1.2220560E-004	3.5959863E-004	1.9867060E+001
4.4728039E+001	2.4987236E+003	1.1482181E+003	2.7499136E+003	-2.4679815E+001	1.877879810039757E+004	-1.1004928E+000	-3.6854993E-003	3.0989594E+000	5.4028958E-001	2.000000000000000E+000	13	1.0626373E-002	3.8642570E-006	3.3043051E-004	1.5184004E-004	3.6364779E-004	2.4679815E+001
3.3427559E+001	2.6202429E+003	1.4659681E+003	3.0024548E+003	-2.9226051E+001	1.877958433944819E+004	-1.1004688E+000	-3.6882393E-003	3.2478127E+000	7.7426040E-001	2.000000000000000E+000	13	1.0633577E-002	3.5416276E-006	2.9066222E-004	1.6261911E-004	3.3306080E-004	2.9226051E+001
2.5040062E+001	2.7972249E+003	1.8624438E+003	3.3605303E+003	-3.3656410E+001	1.878033658892394E+004	-1.1004766E+000	-3.6693730E-003	3.4127271E+000	1.0482197E+000	2.000000000000000E+000	13	1.0646331E-002	3.1680509E-006	2.4769187E-004	1.6491782E-004	2.9757209E-004	3.3656410E+001
1.8735012E+001	3.0655815E+003	2.3790793E+003	3.8804392E+003	-3.7813660E+001	1.878113643410860E+004	-1.1004777E+000	-3.6860909E-003	3.5707319E+000	1.3421879E+000	2.000000000000000E+000	13	1.0638387E-002	2.7415419E-006	2.0358748E-004	1.5799639E-004	2.5770278E-004	3.7813660E+001
1.4017643E+001	3.4661228E+003	2.9228704E+003	4.5340024E+003	-4.0139866E+001	1.878193891534675E+004	-1.1004645E+000	-3.6938149E-003	3.8845041E+000	1.6143259E+000	2.000000000000000E+000	13	1.0609063E-002	2.3398893E-006	1.6860887E-004	1.4218247E-004	2.2055568E-004	4.0139866E+001
1.0500673E+001	4.0227063E+003	3.5716216E+003	5.3794653E+003	-4.1600761E+001	1.878265935767430E+004	-1.1004339E+000	-3.6961327E-003	4.2436304E+000	1.8706399E+000	2.000000000000000E+000	13	1.0630421E-002	1.9761112E-006	1.3900810E-004	1.2342047E-004	1.8589207E-004	4.1600761E+001
7.8596544E+000	4.8193564E+003	4.1585771E+003	6.3655293E+003	-4.0790600E+001	1.878360239966569E+004	-1.1004684E+000	-3.7016443E-003	4.8693600E+000	2.0782242E+000	2.000000000000000E+000	13	1.0607373E-002	1.6663772E-006	1.1893784E-004	1.0263034E-004	1.5709613E-004	4.0790600E+001
5.8829055E+000	5.8647515E+003	4.6702725E+003	7.4971162E+003	-3.8531330E+001	1.878425188721658E+004	-1.1004412E+000	-3.6973569E-003	5.7927666E+000	2.2479258E+000	2.000000000000000E+000	13	1.0651238E-002	1.4207113E-006	1.0434247E-004	8.3090941E-005	1.3338462E-004	3.8531330E+001
4.3989296E+000	6.9273931E+003	5.1512695E+003	8.6327490E+003	-3.6634811E+001	1.878537627324334E+004	-1.1004466E+000	-3.7111996E-003	7.0235848E+000	2.5008588E+000	2.000000000000000E+000	14	1.0636929E-002	1.2321602E-006	9.2954753E-005	6.9121961E-005	1.1583795E-004	3.6634811E+001
3.2936332E+000	8.0372563E+003	5.4190542E+003	9.6934844E+003	-3.3989494E+001	1.878648954710958E+004	-1.1004206E+000	-3.7076566E-003	8.9170542E+000	2.7868178E+000	2.000000000000000E+000	14	1.0652586E-002	1.0989429E-006	8.5535816E-005	5.7671819E-005	1.0316208E-004	3.3989494E+001
2.4660668E+000	9.1962734E+003	5.4716938E+003	1.0700976E+004	-3.0752237E+001	1.878795755096589E+004	-1.1004479E+000	-3.7102224E-003	1.1794879E+001	3.0838294E+000	2.000000000000000E+000	14	1.0636269E-002	9.9395322E-007	8.0309168E-005	4.7783182E-005	9.3449424E-005	3.0752237E+001
1.8425707E+000	1.0231542E+004	5.5387329E+003	1.1634519E+004	-2.8428411E+001	1.878990381217838E+004	-1.1004581E+000	-3.7041991E-003	1.5595005E+001	3.5343499E+000	2.000000000000000E+000	14	1.0618966E-002	9.1271210E-007	7.5586504E-005	4.0917923E-005	8.5951127E-005	2.8428411E+001
1.3812761E+000	1.1216628E+004	5.6292212E+003	1.2549936E+004	-2.6650425E+001	1.879248318414087E+004	-1.1004403E+000	-3.7081875E-003	2.0468750E+001	4.1181765E+000	2.000000000000000E+000	14	1.0628685E-002	8.4691152E-007	7.1216287E-005	3.5740886E-005	7.9681682E-005	2.6650425E+001
1.0333992E+000	1.2106184E+004	5.8226553E+003	1.3433651E+004	-2.5685944E+001	1.879591508115723E+004	-1.1004481E+000	-3.7062708E-003	2.6450319E+001	4.9691825E+000	2.000000000000000E+000	14	1.0629110E-002	7.9123015E-007	6.7084024E-005	3.2265092E-005	7.4439922E-005	2.5685944E+001
7.7320820E-001	1.2979379E+004	6.0733916E+003	1.4330051E+004	-2.5076126E+001	1.880048791993444E+004	-1.1004550E+000	-3.7016831E-003	3.3891624E+001	6.0877876E+000	2.000000000000000E+000	14	1.0620824E-002	7.4115746E-007	6.3206026E-005	2.9575755E-005	6.9783426E-005	2.5076126E+001
5.7853222E-001	1.3892953E+004	6.4980615E+003	1.5337502E+004	-2.5066599E+001	1.880658339246397E+004	-1.1004552E+000	-3.6982261E-003	4.2335896E+001	7.5991874E+000	2.000000000000000E+000	14	1.0623961E-002	6.9267867E-007	5.9058897E-005	2.7623237E-005	6.5199667E-005	2.5066599E+001
4.3306541E-001	1.4867734E+004	7.0653501E+003	1.6461127E+004	-2.5417704E+001	1.881471130132995E+004	-1.1004521E+000	-3.6908509E-003	5.2015522E+001	9.5825520E+000	2.000000000000000E+000	14	1.0626893E-002	6.4557503E-007	5.4868826E-005	2.6074413E-005	6.0749182E-005	2.5417704E+001
3.2390133E-001	1.5815445E+004	7.7989072E+003	1.7633811E+004	-2.6248814E+001	1.882556433613878E+004	-1.1004425E+000	-3.6853966E-003	6.3004810E+001	1.2323919E+001	2.000000000000000E+000	14	1.0617890E-002	6.0213250E-007	5.0861490E-005	2.5080803E-005	5.6709239E-005	2.6248814E+001
2.4232319E-001	1.7045797E+004	8.7792266E+003	1.9173785E+004	-2.7250170E+001	1.884005929978727E+004	-1.1004431E+000	-3.6803475E-003	7.4811592E+001	1.5684319E+001	2.000000000000000E+000	14	1.0628733E-002	5.5433668E-007	4.6366215E-005	2.3880342E-005	5.2154544E-005	2.7250170E+001
1.8153407E-001	1.8299777E+004	9.9686523E+003	2.0838807E+004	-2.8578974E+001	1.885939516726573E+004	-1.1004392E+000	-3.6769065E-003	8.7947922E+001	2.0125782E+001	2.000000000000000E+000	14	1.0625981E-002	5.0991309E-007	4.2140542E-005	2.2955712E-005	4.7987392E-005	2.8578974E+001
1.3584591E-001	1.9887807E+004	1.1476276E+004	2.2961484E+004	-2.9987133E+001	1.888522123347904E+004	-1.1004366E+000	-3.6617233E-003	1.0208749E+002	2.5502022E+001	2.000000000000000E+000	14	1.0625958E-002	4.6277316E-007	3.7721325E-005	2.1767124E-005	4.3551190E-005	2.9987133E+001
1.0172522E-001	2.1559074E+004	1.3152803E+004	2.5254502E+004	-3.1386614E+001	1.891969703436986E+004	-1.1004412E+000	-3.6517000E-003	1.1895239E+002	3.2265038E+001	2.000000000000000E+000	14	1.0623726E-002	4.2066662E-007	3.3802786E-005	2.0622469E-005	3.9596900E-005	3.1386614E+001
7.6103695E-002	2.3819109E+004	1.5429188E+004	2.8379744E+004	-3.2933758E+001	1.896576685154479E+004	-1.1004342E+000	-3.6335099E-003	1.3554120E+002	4.0062729E+001	2.000000000000000E+000	14	1.0627906E-002	3.7448913E-007	2.9573899E-005	1.9156940E-005	3.5236400E-005	3.2933758E+001
5.6966495E-002	2.6091904E+004	1.7778375E+004	3.1573059E+004	-3.4269547E+001	1.902730050758738E+004	-1.1004459E+000	-3.6146287E-003	1.5714789E+002	4.9826385E+001	2.000000000000000E+000	14	1.0621283E-002	3.3640336E-007	2.6174142E-005	1.7834411E-005	3.1672575E-005	3.4269547E+001
4.2644646E-002	2.9541301E+004	2.1266877E+004	3.6400117E+004	-3.5750237E+001	1.910948701205110E+004	-1.1004351E+000	-3.5936846E-003	1.7548981E+002	5.9903717E+001	2.000000000000000E+000	14	1.0625422E-002	2.9190625E-007	2.2295850E-005	1.6050855E-005	2.7472439E-005	3.5750237E+001
3.1913798E-002	3.3486234E+004	2.4287238E+004	4.1366629E+004	-3.5953011E+001	1.921929551465332E+004	-1.1004385E+000	-3.5511220E-003	2.0533524E+002	7.0781456E+001	2.000000000000000E+000	14	1.0627707E-002	2.5691497E-007	1.9568884E-005	1.4193120E-005	2.4174074E-005	3.5953011E+001
2.3876827E-002	4.0292219E+004	2.9435994E+004	4.9899305E+004	-3.6150475E+001	1.936605298138398E+004	-1.1004374E+000	-3.5038753E-003	2.2644608E+002	7.8801270E+001	2.000000000000000E+000	14	1.0624949E-002	2.1292779E-007	1.6181999E-005	1.1821967E-005	2.0040359E-005	3.6150475E+001
1.7841151E-002	4.6895832E+004	3.0637715E+004	5.6016859E+004	-3.3157158E+001	1.956244576927205E+004	-1.1004404E+000	-3.4537367E-003	2.9116614E+002	8.7099586E+001	2.000000000000000E+000	14	1.0626613E-002	1.8970384E-007	1.4945027E-005	9.7637994E-006	1.7851768E-005	3.3157158E+001
1.3377565E-002	5.8070414E+004	3.6519109E+004	6.8598969E+004	-3.2164814E+001	1.982435381123211E+004	-1.1004399E+000	-3.3714506E-003	3.2577887E+002	9.2326866E+001	2.000000000000000E+000	14	1.0626053E-002	1.5490104E-007	1.2340131E-005	7.7604154E-006	1.4577478E-005	3.2164814E+001
1.0005763E-002	6.2483348E+004	3.1125246E+004	6.9806516E+004	-2.6479578E+001	2.017451086957037E+004	-1.1004387E+000	-3.2677480E-003	5.1104269E+002	1.0159933E+002	2.000000000000000E+000	14	1.0624646E-002	1.5220135E-007	1.2822490E-005	6.3873522E-006	1.4325310E-005	2.6479578E+001